"Time (s)","Linear Acceleration x (m/s^2)","Linear Acceleration y (m/s^2)","Linear Acceleration z (m/s^2)"
8.617066900E-2,1.273030043E-1,-5.508700013E-2,1.651760042E-1
9.115167100E-2,1.352970004E-1,-5.734900013E-2,1.677660048E-1
9.613280900E-2,1.387560070E-1,-5.871300027E-2,1.707960069E-1
1.011140400E-1,1.393519938E-1,-5.954800174E-2,1.741160005E-1
1.060950420E-1,1.389349997E-1,-6.002400070E-2,1.775979996E-1
1.110762460E-1,1.370690018E-1,-6.097999960E-2,1.810249984E-1
1.160574020E-1,1.321920007E-1,-6.219099835E-2,1.867029965E-1
1.210386310E-1,1.241410002E-1,-6.373500079E-2,1.912460029E-1
1.260196180E-1,1.144440025E-1,-6.477800012E-2,1.934739947E-1
1.310008470E-1,1.031109989E-1,-6.574100256E-2,1.927050054E-1
1.359820030E-1,9.072499722E-2,-6.561700255E-2,1.923419982E-1
1.409629890E-1,7.819800079E-2,-6.494399905E-2,1.940959990E-1
1.459442170E-1,6.773000211E-2,-6.446799636E-2,1.948609948E-1
1.509254480E-1,5.897200108E-2,-6.408800185E-2,1.919620037E-1
1.559065890E-1,5.081700161E-2,-6.467799842E-2,1.841509938E-1
1.608878180E-1,4.442000017E-2,-6.508599967E-2,1.734350026E-1
1.658688200E-1,3.949499875E-2,-6.656099856E-2,1.612209976E-1
1.708499530E-1,4.474800080E-2,-6.729499996E-2,1.473640054E-1
1.758311830E-1,4.748199880E-2,-7.279799879E-2,1.352580041E-1
1.808121850E-1,3.887899965E-2,-8.071199805E-2,1.211019978E-1
1.857934140E-1,3.250800073E-2,-8.761800081E-2,9.898900241E-2
1.907745700E-1,2.198399976E-2,-9.256800264E-2,7.172200084E-2
1.957557990E-1,1.043600030E-2,-9.448400140E-2,4.058599845E-2
2.007367510E-1,-1.864999998E-3,-9.429399669E-2,7.056999952E-3
2.057179030E-1,-1.649600081E-2,-9.203500301E-2,-2.895599976E-2
2.106991340E-1,-3.477599844E-2,-8.703500032E-2,-6.453800201E-2
2.156803600E-1,-5.584900081E-2,-7.914099842E-2,-9.734199941E-2
2.206613620E-1,-7.941100001E-2,-6.848400086E-2,-1.253100038E-1
2.256425140E-1,-1.037509963E-1,-5.746899918E-2,-1.460250020E-1
2.306238170E-1,-1.263519973E-1,-4.565599933E-2,-1.615130007E-1
2.356047420E-1,-1.427090019E-1,-3.511999920E-2,-1.746670008E-1
2.405859710E-1,-1.523460001E-1,-2.700999938E-2,-1.873629987E-1
2.455671120E-1,-1.564809978E-1,-2.084200084E-2,-1.991149932E-1
2.505483400E-1,-1.584479958E-1,-1.597099937E-2,-2.078790069E-1
2.555295710E-1,-1.610440016E-1,-1.188299991E-2,-2.139939964E-1
2.605105540E-1,-1.639499962E-1,-7.910000160E-3,-2.167820036E-1
2.654917830E-1,-1.644870043E-1,-4.157000221E-3,-2.186280042E-1
2.704729390E-1,-1.609590054E-1,-6.900000153E-5,-2.160840034E-1
2.754539240E-1,-1.547520012E-1,3.646000056E-3,-2.119410038E-1
2.804351530E-1,-1.469770074E-1,6.684000138E-3,-2.057520002E-1
2.854163080E-1,-1.362880021E-1,8.794999681E-3,-2.030999959E-1
2.903975080E-1,-1.177769974E-1,1.016400009E-2,-2.071709931E-1
2.953785100E-1,-8.553899825E-2,7.939999923E-3,-2.175790071E-1
3.003597390E-1,-7.564499974E-2,3.350999905E-3,-2.154999971E-1
3.053408760E-1,-6.715600193E-2,-4.469999985E-4,-2.114730030E-1
3.103218760E-1,-5.793799832E-2,-2.145000035E-3,-2.091439962E-1
3.153031050E-1,-5.637500063E-2,-3.750000033E-4,-2.021750063E-1
3.202842810E-1,-6.406199932E-2,3.720999928E-3,-1.910450011E-1
3.252655090E-1,-7.500000298E-2,1.159599982E-2,-1.790129989E-1
3.302467400E-1,-7.698199898E-2,2.019499987E-2,-1.633850038E-1
3.352277220E-1,-7.895199955E-2,2.720100060E-2,-1.447539926E-1
3.402089510E-1,-7.790999860E-2,3.114599921E-2,-1.259550005E-1
3.451901020E-1,-7.720299810E-2,3.066300042E-2,-1.079140007E-1
3.501711020E-1,-7.612799853E-2,2.516799979E-2,-8.147999644E-2
3.551523310E-1,-5.700799823E-2,1.106800046E-2,-2.317300066E-2
3.601334860E-1,-4.266899824E-2,-6.978000049E-3,2.455700003E-2
3.651147150E-1,-3.477400169E-2,-2.377800085E-2,6.510300189E-2
3.700957170E-1,-2.239199914E-2,-3.696300089E-2,9.192200005E-2
3.750769510E-1,-1.204000041E-2,-4.482999817E-2,1.066100001E-1
3.800581070E-1,2.629999944E-4,-5.099499971E-2,1.192540005E-1
3.850393360E-1,1.119199954E-2,-5.471400172E-2,1.231120005E-1
3.900203330E-1,1.853000000E-2,-5.915800110E-2,1.191750020E-1
3.950015610E-1,2.235800028E-2,-6.137299910E-2,1.120039970E-1
3.999827220E-1,2.401500009E-2,-6.365499645E-2,9.930700064E-2
4.049639510E-1,2.495799959E-2,-6.599099934E-2,8.442399651E-2
4.099449530E-1,3.120299987E-2,-6.875400245E-2,5.949499831E-2
4.149261000E-1,4.047700018E-2,-6.815599650E-2,2.365400083E-2
4.199073310E-1,4.483100027E-2,-6.020599976E-2,-1.663699932E-2
4.248885620E-1,5.936000124E-2,-5.493199825E-2,-5.263900012E-2
4.298695550E-1,6.370499730E-2,-4.994700104E-2,-9.797500074E-2
4.348507060E-1,6.098699942E-2,-4.276699945E-2,-1.460569948E-1
4.398319370E-1,5.415299907E-2,-3.146800026E-2,-1.817760020E-1
4.448129240E-1,3.253199905E-2,-8.638000116E-3,-2.085630000E-1
4.497941530E-1,2.813299932E-2,1.032700017E-2,-2.428259999E-1
4.547753090E-1,2.391099930E-2,1.656099968E-2,-2.590000033E-1
4.597565380E-1,3.457900137E-2,2.301700041E-2,-2.605110109E-1
4.647375400E-1,6.175699830E-2,1.439100038E-2,-2.386720031E-1
4.697186910E-1,9.920399636E-2,1.585399918E-2,-1.571629941E-1
4.746999270E-1,1.439110041E-1,2.762299962E-2,-9.170100093E-2
4.796809290E-1,1.690780073E-1,2.554599941E-2,-6.078299880E-2
4.846621580E-1,1.879349947E-1,1.935099997E-2,-3.860199824E-2
4.896433890E-1,2.036589980E-1,1.579999924E-2,-2.570999973E-2
4.946245450E-1,2.133010030E-1,1.340600010E-2,-1.558800042E-2
4.996055450E-1,2.226749957E-1,1.404500008E-2,-1.547100022E-2
5.045867730E-1,2.149150074E-1,2.368500084E-2,-4.787399992E-2
5.095679290E-1,2.143249959E-1,3.695299849E-2,-6.754100323E-2
5.145491580E-1,2.234299928E-1,4.833300039E-2,-7.733699679E-2
5.195301640E-1,2.299479991E-1,5.513799936E-2,-6.991299987E-2
5.245113930E-1,2.395679951E-1,5.553900078E-2,-4.846100137E-2
5.294925490E-1,2.438790053E-1,5.285900086E-2,-2.548800036E-2
5.344737780E-1,2.455410063E-1,4.886300117E-2,8.147999644E-3
5.394547800E-1,2.483389974E-1,4.598499835E-2,5.069899932E-2
5.444359940E-1,2.488539964E-1,4.170399904E-2,9.457200021E-2
5.494171500E-1,2.430720031E-1,3.770500049E-2,1.373309940E-1
5.543981550E-1,2.275300026E-1,3.527100012E-2,1.730079949E-1
5.593793840E-1,1.997089982E-1,3.683599830E-2,2.078710049E-1
5.643606150E-1,1.697269976E-1,3.859800100E-2,2.414419949E-1
5.693417900E-1,1.527640074E-1,3.713500127E-2,2.691940069E-1
5.743227900E-1,1.373430043E-1,4.024200141E-2,2.894800007E-1
5.793039360E-1,1.398179978E-1,4.553699866E-2,3.206480145E-1
5.842851670E-1,1.524599940E-1,4.977399856E-2,3.654380143E-1
5.892663980E-1,1.648720056E-1,5.048099905E-2,4.115499854E-1
5.942473950E-1,1.786960065E-1,4.057599977E-2,4.617190063E-1
5.992286240E-1,1.970340014E-1,3.450400010E-2,5.128359795E-1
6.042097800E-1,2.154709995E-1,3.737099841E-2,5.461959839E-1
6.091910080E-1,2.159190029E-1,3.296099976E-2,5.615820289E-1
6.141720100E-1,2.037640065E-1,3.932999820E-2,5.412669778E-1
6.191531620E-1,1.794189960E-1,3.146399930E-2,4.487830102E-1
6.241343880E-1,1.443649977E-1,1.221099962E-2,3.619000018E-1
6.291153900E-1,1.219410002E-1,6.000999827E-3,3.047159910E-1
6.340966190E-1,9.908500314E-2,7.699999696E-5,2.592859864E-1
6.390777750E-1,7.837399840E-2,-7.981999777E-3,2.277950048E-1
6.440590040E-1,6.314600259E-2,-7.918000221E-3,1.992200017E-1
6.490400020E-1,4.623899981E-2,4.645999987E-3,1.663990021E-1
6.540212300E-1,2.473299950E-2,2.363700047E-2,1.310109943E-1
6.590024000E-1,-1.410000026E-3,4.521299899E-2,9.197600186E-2
6.639836290E-1,-2.928300016E-2,6.419900060E-2,4.861800000E-2
6.689646310E-1,-5.388100073E-2,7.868500054E-2,2.183000091E-3
6.739458650E-1,-7.368700206E-2,8.874099702E-2,-4.754099995E-2
6.789270210E-1,-8.544500172E-2,9.544599801E-2,-9.523800015E-2
6.839080210E-1,-8.680699766E-2,9.442400187E-2,-1.432279944E-1
6.888892730E-1,-8.087400347E-2,8.683999628E-2,-1.896000057E-1
6.938705040E-1,-6.840199977E-2,7.873000205E-2,-2.342330068E-1
6.988516600E-1,-4.533600062E-2,7.224100083E-2,-2.756209970E-1
7.038326640E-1,-9.518000297E-3,6.481599808E-2,-3.111590147E-1
7.088138930E-1,3.458699957E-2,5.466200039E-2,-3.390119970E-1
7.137950490E-1,7.676599920E-2,4.143099859E-2,-3.579759896E-1
7.187762780E-1,1.073179990E-1,2.337599918E-2,-3.691889942E-1
7.237572800E-1,1.221819967E-1,2.739999909E-3,-3.734970093E-1
7.287384310E-1,1.274340004E-1,-2.104699984E-2,-3.749629855E-1
7.337196580E-1,1.263359934E-1,-4.901599884E-2,-3.796519935E-1
7.387006600E-1,1.222650036E-1,-8.524499834E-2,-3.908709884E-1
7.436818890E-1,1.172849983E-1,-1.252740026E-1,-4.040580094E-1
7.486631200E-1,1.143219993E-1,-1.585090011E-1,-4.095650017E-1
7.536442760E-1,1.137399971E-1,-1.807570010E-1,-4.038209915E-1
7.586255040E-1,1.096350029E-1,-1.952989995E-1,-3.874759972E-1
7.636065010E-1,1.030939966E-1,-2.070599943E-1,-3.608019948E-1
7.685876530E-1,9.601099789E-2,-2.137230039E-1,-3.259269893E-1
7.735688840E-1,9.110999852E-2,-2.164359987E-1,-2.860879898E-1
7.785498860E-1,9.006199986E-2,-2.147119939E-1,-2.482800037E-1
7.835313460E-1,8.967100084E-2,-2.037560046E-1,-2.152239978E-1
7.885122710E-1,8.578299731E-2,-1.874579936E-1,-1.896090060E-1
7.934934790E-1,7.641500235E-2,-1.754409969E-1,-1.656689942E-1
7.984747100E-1,6.502699852E-2,-1.727219969E-1,-1.405809969E-1
8.034557120E-1,5.655400082E-2,-1.738030016E-1,-1.161039993E-1
8.084368880E-1,4.881900176E-2,-1.739020050E-1,-8.937100321E-2
8.134181190E-1,3.784200177E-2,-1.693200022E-1,-6.057899818E-2
8.183991210E-1,2.267600037E-2,-1.599719971E-1,-3.192700073E-2
8.233802730E-1,5.435000174E-3,-1.477700025E-1,-2.876000013E-3
8.283615040E-1,-1.046300028E-2,-1.357730031E-1,2.330099978E-2
8.333427340E-1,-2.688599937E-2,-1.226639971E-1,4.443300143E-2
8.383237360E-1,-4.162000120E-2,-1.124330014E-1,6.031899899E-2
8.433049650E-1,-5.161900073E-2,-1.068010032E-1,7.296299934E-2
8.482861210E-1,-5.942700058E-2,-1.029980034E-1,8.378200233E-2
8.532671260E-1,-6.446100026E-2,-9.944500029E-2,9.396799654E-2
8.582483550E-1,-6.695500016E-2,-9.449599683E-2,1.035209969E-1
8.632295110E-1,-6.703600287E-2,-8.664199710E-2,1.132709980E-1
8.682107440E-1,-6.397099793E-2,-7.518699765E-2,1.221560016E-1
8.731917460E-1,-5.775300041E-2,-6.110699847E-2,1.272850037E-1
8.781729850E-1,-4.907499999E-2,-4.416200146E-2,1.271760017E-1
8.831542160E-1,-3.772800043E-2,-2.473100089E-2,1.192969978E-1
8.881353720E-1,-2.545800060E-2,1.411000034E-3,1.059729978E-1
8.931163860E-1,-1.430100016E-2,3.266900033E-2,8.675699681E-2
8.980975380E-1,-6.140999962E-3,5.786599964E-2,5.593400076E-2
9.030787680E-1,-6.990000256E-4,7.470399886E-2,1.607999951E-2
9.080597660E-1,7.675999776E-3,8.791899681E-2,-2.563199960E-2
9.130409940E-1,1.846300066E-2,9.957599640E-2,-6.743299961E-2
9.180221500E-1,3.168899938E-2,1.083270013E-1,-1.048939973E-1
9.230033500E-1,4.482400045E-2,1.134769991E-1,-1.355659962E-1
9.279843520E-1,5.718300119E-2,1.129999980E-1,-1.598490030E-1
9.329655760E-1,7.064600289E-2,1.057860032E-1,-1.767839938E-1
9.379467320E-1,8.582200110E-2,9.395000339E-2,-1.883530021E-1
9.429279600E-1,1.044109985E-1,7.790599763E-2,-1.969700009E-1
9.479089620E-1,1.249639988E-1,5.913199857E-2,-2.023960054E-1
9.528901140E-1,1.458120048E-1,3.677200153E-2,-2.113330066E-1
9.578713450E-1,1.680449992E-1,1.205100026E-2,-2.266550064E-1
9.628523470E-1,1.903650016E-1,-1.289500017E-2,-2.471480072E-1
9.678335760E-1,2.105190009E-1,-3.655700013E-2,-2.722910047E-1
9.728148070E-1,2.249179929E-1,-5.644299835E-2,-3.024269938E-1
9.777959620E-1,2.303079963E-1,-7.145900279E-2,-3.356029987E-1
9.827769620E-1,2.267680019E-1,-7.976800203E-2,-3.671869934E-1
9.877581140E-1,2.154439986E-1,-7.703000307E-2,-3.961580098E-1
9.927394220E-1,1.975100040E-1,-6.590200216E-2,-4.184400141E-1
9.977205780E-1,1.773529947E-1,-5.189200118E-2,-4.336490035E-1
1.002701822E0,1.558640003E-1,-3.774600103E-2,-4.412829876E-1
1.007682824E0,1.334380060E-1,-2.655800059E-2,-4.402379990E-1
1.012664052E0,1.123050004E-1,-2.188500017E-2,-4.308480024E-1
1.017645213E0,9.214200079E-2,-2.184900083E-2,-4.134399891E-1
1.022626442E0,7.256499678E-2,-2.443799935E-2,-3.852750063E-1
1.027607444E0,5.351899937E-2,-2.804199979E-2,-3.460170031E-1
1.032588576E0,3.438699991E-2,-3.137199953E-2,-2.950730026E-1
1.037569578E0,1.257000025E-2,-3.486600146E-2,-2.334409952E-1
1.042550730E0,-1.075700019E-2,-3.830000013E-2,-1.642159969E-1
1.047531961E0,-3.797399998E-2,-3.983300179E-2,-8.929800242E-2
1.052513191E0,-6.945300102E-2,-3.927199915E-2,-1.199899986E-2
1.057494193E0,-1.040209979E-1,-3.467399999E-2,6.279999763E-2
1.062475437E0,-1.393370032E-1,-2.531299926E-2,1.333030015E-1
1.067456593E0,-1.747400016E-1,-1.022600010E-2,1.932809949E-1
1.072437822E0,-2.091280073E-1,1.046099979E-2,2.399860024E-1
1.077418819E0,-2.435979992E-1,3.792899847E-2,2.734549940E-1
1.082400048E0,-2.785150111E-1,7.139600068E-2,2.935909927E-1
1.087381278E0,-3.134729862E-1,1.062140018E-1,3.051030040E-1
1.092362434E0,-3.505679965E-1,1.387919933E-1,3.134180009E-1
1.097343434E0,-3.874590099E-1,1.663880050E-1,3.225600123E-1
1.102324590E0,-4.218249917E-1,1.868039966E-1,3.440479934E-1
1.107305821E0,-4.522539973E-1,1.978379935E-1,3.810310066E-1
1.112286814E0,-4.739789963E-1,1.998970062E-1,4.355149865E-1
1.117268043E0,-4.834429920E-1,1.954160035E-1,5.100690126E-1
1.122249273E0,-4.804790020E-1,1.853830069E-1,6.069329977E-1
1.127230429E0,-4.655309916E-1,1.726949960E-1,7.209450006E-1
1.132211429E0,-4.408670068E-1,1.601189971E-1,8.443310261E-1
1.137192658E0,-4.126439989E-1,1.473120004E-1,9.675570130E-1
1.142173814E0,-3.863629997E-1,1.276179999E-1,1.064224958E0
1.147154814E0,-3.609969914E-1,1.059250012E-1,1.137151003E0
1.152136043E0,-3.381490111E-1,9.029500186E-2,1.198236942E0
1.157117199E0,-3.228729963E-1,7.913099974E-2,1.236636996E0
1.162098427E0,-3.133330047E-1,7.626499981E-2,1.249287963E0
1.167079429E0,-3.060840070E-1,8.137899637E-2,1.239999056E0
1.172060658E0,-3.008599877E-1,9.096000344E-2,1.208436012E0
1.177041814E0,-2.927219868E-1,1.053929999E-1,1.158666015E0
1.182022809E0,-2.733139992E-1,1.120869964E-1,1.096122980E0
1.187004038E0,-2.485949993E-1,1.194209978E-1,1.006633043E0
1.191985194E0,-2.196249962E-1,1.236929968E-1,8.982650042E-1
1.196966422E0,-1.903849989E-1,1.259610057E-1,7.765830159E-1
1.201947425E0,-1.664810032E-1,1.305209994E-1,6.473159790E-1
1.206928653E0,-1.468479931E-1,1.340409964E-1,5.240449905E-1
1.211909809E0,-1.329929978E-1,1.387079954E-1,4.132969975E-1
1.216891038E0,-1.226110011E-1,1.421229988E-1,3.259769976E-1
1.221872025E0,-1.147520021E-1,1.423649937E-1,2.657620013E-1
1.226853254E0,-1.100609973E-1,1.411540061E-1,2.335509956E-1
1.231834405E0,-1.102669984E-1,1.380780041E-1,2.264900059E-1
1.236815405E0,-1.066650003E-1,1.291050017E-1,2.403119951E-1
1.241796633E0,-9.312099963E-2,1.121589988E-1,2.635020018E-1
1.246777789E0,-6.517499685E-2,8.564099669E-2,2.858200073E-1
1.251759018E0,-2.628299966E-2,5.689299852E-2,2.979260087E-1
1.256740020E0,1.702499948E-2,3.363899887E-2,2.944619954E-1
1.261721249E0,5.626799911E-2,1.956799999E-2,2.717050016E-1
1.266702405E0,8.402399719E-2,1.393099967E-2,2.242600024E-1
1.271683405E0,9.888699651E-2,1.638000086E-2,1.518259943E-1
1.276664619E0,1.026680022E-1,2.517100051E-2,6.016900018E-2
1.281645850E0,1.003300026E-1,3.545900062E-2,-4.437699914E-2
1.286627006E0,9.679999948E-2,4.394600168E-2,-1.522099972E-1
1.291608006E0,9.640199691E-2,5.443799868E-2,-2.428829968E-1
1.296589158E0,9.659399837E-2,6.219299883E-2,-3.197619915E-1
1.301570389E0,9.770599753E-2,6.258799881E-2,-3.967800140E-1
1.306551601E0,1.048519984E-1,5.964700133E-2,-4.643320143E-1
1.311532603E0,1.148469970E-1,5.359100178E-2,-5.189480186E-1
1.316513754E0,1.252679974E-1,4.242600128E-2,-5.634700060E-1
1.321494985E0,1.358399987E-1,2.774799988E-2,-6.004289985E-1
1.326475987E0,1.400839984E-1,9.875000454E-3,-6.315929890E-1
1.331457442E0,1.298159957E-1,2.281999914E-3,-6.604819894E-1
1.336438444E0,1.150899976E-1,-1.429999946E-3,-6.704409719E-1
1.341419596E0,9.871099889E-2,2.367000096E-3,-6.664059758E-1
1.346400598E0,8.752399683E-2,1.070399955E-2,-6.523889899E-1
1.351381826E0,8.789599687E-2,1.628799923E-2,-6.303840280E-1
1.356362982E0,9.132199734E-2,2.554400079E-2,-6.099709868E-1
1.361344212E0,1.061299965E-1,2.464799955E-2,-5.905119777E-1
1.366325214E0,1.284459978E-1,1.703700051E-2,-5.785210133E-1
1.371306443E0,1.544079930E-1,7.437000051E-3,-5.767170191E-1
1.376287617E0,1.863500029E-1,-8.670000359E-3,-5.837020278E-1
1.381268845E0,2.237150073E-1,-3.158000112E-2,-6.051229835E-1
1.386249847E0,2.582040131E-1,-5.246200040E-2,-6.424360275E-1
1.391230999E0,2.836250067E-1,-6.412400305E-2,-6.874799728E-1
1.396212230E0,2.942560017E-1,-6.323800236E-2,-7.342410088E-1
1.401193232E0,2.920359969E-1,-5.505900085E-2,-7.803980112E-1
1.406174389E0,2.818320096E-1,-4.615399987E-2,-8.268340230E-1
1.411155620E0,2.672199905E-1,-4.120099917E-2,-8.727959991E-1
1.416136851E0,2.515090108E-1,-3.953599930E-2,-9.141610265E-1
1.421117857E0,2.378540039E-1,-4.305699840E-2,-9.524250031E-1
1.426099085E0,2.260999978E-1,-5.130099878E-2,-9.850159883E-1
1.431080241E0,2.130579948E-1,-6.236499920E-2,-1.009173036E0
1.436061241E0,1.954099983E-1,-7.051300257E-2,-1.023007035E0
1.441042470E0,1.715230048E-1,-7.345800102E-2,-1.023285985E0
1.446023701E0,1.406659931E-1,-7.083299756E-2,-1.010612011E0
1.451004626E0,1.077440009E-1,-6.566900015E-2,-9.820209742E-1
1.455985855E0,7.629899681E-2,-6.032399833E-2,-9.381440282E-1
1.460967009E0,4.890900105E-2,-5.809099972E-2,-8.801850080E-1
1.465948239E0,2.603900060E-2,-5.987999961E-2,-8.098760247E-1
1.470929241E0,7.422999945E-3,-6.533399969E-2,-7.270690203E-1
1.475910490E0,-7.722999901E-3,-7.544299960E-2,-6.348389983E-1
1.480891721E0,-1.888399944E-2,-8.940400183E-2,-5.349410176E-1
1.485872877E0,-3.094100021E-2,-1.071489975E-1,-4.328689873E-1
1.490853872E0,-4.716200009E-2,-1.279850006E-1,-3.329510093E-1
1.495835101E0,-6.537500024E-2,-1.516759992E-1,-2.374390066E-1
1.500816256E0,-8.479700238E-2,-1.747159958E-1,-1.508769989E-1
1.505797256E0,-9.988799691E-2,-2.017659992E-1,-7.434999943E-2
1.510778485E0,-1.194299981E-1,-2.211720049E-1,-1.312800031E-2
1.515759716E0,-1.415130049E-1,-2.338239998E-1,3.380500153E-2
1.520740872E0,-1.623069942E-1,-2.436259985E-1,6.618200243E-2
1.525722101E0,-1.821350008E-1,-2.477650046E-1,8.314400166E-2
1.530703136E0,-1.994020045E-1,-2.441170067E-1,9.422399849E-2
1.535684287E0,-2.148749977E-1,-2.357710004E-1,1.010449976E-1
1.540665289E0,-2.279559970E-1,-2.239869982E-1,1.045870036E-1
1.545646749E0,-2.384209931E-1,-2.090689987E-1,1.070370004E-1
1.550627674E0,-2.447499931E-1,-1.900469959E-1,1.117419973E-1
1.555608908E0,-2.468760014E-1,-1.688939929E-1,1.232950017E-1
1.560589910E0,-2.453850061E-1,-1.480109990E-1,1.366239935E-1
1.565571139E0,-2.381269932E-1,-1.291349977E-1,1.539269984E-1
1.570552290E0,-2.252330035E-1,-1.085430011E-1,1.773460060E-1
1.575533518E0,-2.086610049E-1,-8.421699703E-2,2.062329948E-1
1.580514520E0,-1.893389970E-1,-5.690300092E-2,2.352170050E-1
1.585495754E0,-1.667300016E-1,-3.051899932E-2,2.622340024E-1
1.590476910E0,-1.416199952E-1,-6.347000133E-3,2.860830128E-1
1.595458139E0,-1.134869978E-1,1.445799973E-2,3.063740134E-1
1.600439136E0,-8.683100343E-2,3.033700027E-2,3.186489940E-1
1.605420288E0,-6.327199936E-2,4.297599941E-2,3.226589859E-1
1.610401518E0,-4.493499920E-2,5.327900127E-2,3.187800050E-1
1.615382539E0,-3.173400089E-2,6.330999732E-2,3.078249991E-1
1.620363768E0,-2.283399925E-2,7.503700256E-2,2.914620042E-1
1.625344924E0,-1.449999958E-2,8.933400363E-2,2.742860019E-1
1.630326230E0,-9.046000428E-3,1.046030000E-1,2.556929886E-1
1.635307155E0,-4.683000036E-3,1.198830009E-1,2.371799946E-1
1.640288307E0,-1.511999988E-3,1.340219975E-1,2.214110047E-1
1.645269537E0,-1.209000009E-3,1.485890001E-1,2.102639973E-1
1.650250540E0,-2.946000081E-3,1.619029939E-1,2.052419931E-1
1.655231768E0,-6.124000065E-3,1.739590019E-1,2.072249949E-1
1.660212944E0,-8.155000396E-3,1.850720048E-1,2.148129940E-1
1.665193944E0,-9.460999630E-3,1.926849931E-1,2.281620055E-1
1.670175173E0,-1.031399984E-2,1.976899952E-1,2.485450059E-1
1.675156343E0,-1.233700011E-2,2.004179955E-1,2.758980095E-1
1.680137572E0,-1.657300070E-2,2.022799999E-1,3.068459928E-1
1.685118574E0,-2.321800031E-2,2.057500035E-1,3.405419886E-1
1.690099816E0,-2.987499908E-2,2.135690004E-1,3.717769980E-1
1.695080972E0,-3.513700143E-2,2.255070060E-1,3.965089917E-1
1.700062201E0,-3.813299909E-2,2.378019989E-1,4.119539857E-1
1.705043184E0,-2.993199974E-2,2.408079952E-1,4.171589911E-1
