"Time (s)","Linear Acceleration x (m/s^2)","Linear Acceleration y (m/s^2)","Linear Acceleration z (m/s^2)"
8.654519800E-2,1.473399997E-2,-3.415099904E-2,7.528399676E-2
9.152620000E-2,4.109200090E-2,-4.187700152E-2,5.888599902E-2
9.650735200E-2,6.492400169E-2,-4.607899860E-2,4.206499830E-2
1.014883450E-1,8.520200104E-2,-4.695000127E-2,2.714000084E-2
1.064694970E-1,1.012339965E-1,-4.471100122E-2,1.558300015E-2
1.114504990E-1,1.139950007E-1,-3.857799992E-2,7.869999856E-3
1.164316270E-1,1.226079985E-1,-3.086300008E-2,3.934000153E-3
1.214126290E-1,1.273269951E-1,-2.226400003E-2,2.764000092E-3
1.263937810E-1,1.304640025E-1,-1.366099995E-2,5.020999815E-3
1.313749910E-1,1.324629933E-1,-5.311000161E-3,9.762000293E-3
1.363559160E-1,1.346369982E-1,2.391000045E-3,1.668399945E-2
1.413369160E-1,1.364399940E-1,8.616000414E-3,2.637100033E-2
1.463180490E-1,1.380739957E-1,1.378799975E-2,3.807900101E-2
1.512990510E-1,1.384869963E-1,1.747900061E-2,5.204299837E-2
1.562802030E-1,1.384979934E-1,2.023999952E-2,6.659799814E-2
1.612611810E-1,1.385080069E-1,2.270399965E-2,8.098799735E-2
1.662423330E-1,1.390890032E-1,2.403699979E-2,9.486100078E-2
1.712233350E-1,1.401930004E-1,2.299599908E-2,1.125990003E-1
1.762044520E-1,1.440140009E-1,2.465300076E-2,1.228969991E-1
1.811854540E-1,1.478359997E-1,2.815099992E-2,1.260900050E-1
1.861666060E-1,1.516599953E-1,3.401200101E-2,1.238560006E-1
1.911476030E-1,1.553570032E-1,4.080799967E-2,1.162590012E-1
1.961287550E-1,1.589539945E-1,4.688400030E-2,1.036050022E-1
2.011097570E-1,1.627880037E-1,5.212799832E-2,8.792699873E-2
2.060908890E-1,1.666869968E-1,5.510900170E-2,6.912899762E-2
2.110718910E-1,1.721670032E-1,5.672900006E-2,5.032400042E-2
2.160530330E-1,1.768710017E-1,5.802400038E-2,3.246900067E-2
2.210340350E-1,1.812079996E-1,6.021000072E-2,1.754800044E-2
2.260151870E-1,1.835930049E-1,6.285200268E-2,6.887000054E-3
2.309961890E-1,1.829469949E-1,6.598799676E-2,6.580000045E-4
2.359774180E-1,1.798119992E-1,7.022000104E-2,-1.899000024E-3
2.409583380E-1,1.749430001E-1,7.386100292E-2,-6.259999936E-4
2.459394900E-1,1.684290022E-1,7.658199966E-2,3.903999925E-3
2.509204870E-1,1.618770063E-1,7.786600292E-2,8.740999736E-3
2.559016390E-1,1.570190042E-1,7.710500062E-2,1.184399985E-2
2.608826410E-1,1.534519941E-1,7.266499847E-2,1.311499998E-2
2.658637590E-1,1.534709930E-1,6.636799872E-2,1.081100013E-2
2.708447610E-1,1.573169976E-1,5.864899978E-2,5.776000209E-3
2.758259130E-1,1.619260013E-1,5.042999983E-2,-3.040000098E-3
2.808069440E-1,1.677840054E-1,4.232399911E-2,-1.392399985E-2
2.857880950E-1,1.722149998E-1,3.513599932E-2,-2.607900091E-2
2.907690970E-1,1.759520024E-1,2.913000062E-2,-3.925099969E-2
2.957502640E-1,1.788769960E-1,2.547499910E-2,-5.202199891E-2
3.007312660E-1,1.830690056E-1,2.465800010E-2,-6.358099729E-2
3.057124220E-1,1.864860058E-1,2.547200024E-2,-7.110399753E-2
3.106934240E-1,1.894749999E-1,2.778399922E-2,-7.635600120E-2
3.156745760E-1,1.929520071E-1,3.161200136E-2,-8.094099909E-2
3.206555830E-1,1.963080019E-1,3.544100001E-2,-8.499199897E-2
3.256368120E-1,1.991840005E-1,3.856800124E-2,-8.740200102E-2
3.306177370E-1,2.025070041E-1,4.081400111E-2,-8.786199987E-2
3.355989850E-1,2.063779980E-1,4.120599851E-2,-8.739899844E-2
3.405799100E-1,2.099220008E-1,3.909400105E-2,-8.632799983E-2
3.455610620E-1,2.112880051E-1,3.542499989E-2,-8.310800046E-2
3.505422920E-1,2.105299979E-1,2.993500046E-2,-7.823400199E-2
3.555232940E-1,2.076890022E-1,2.369300090E-2,-6.980200112E-2
3.605042230E-1,2.036280036E-1,1.748600043E-2,-5.820399895E-2
3.654854510E-1,1.987839937E-1,9.391999803E-3,-4.241300002E-2
3.704666050E-1,1.908220053E-1,-1.041000010E-3,-2.052300051E-2
3.754476070E-1,1.808770001E-1,-1.238800026E-2,4.586999770E-3
3.804287590E-1,1.692820042E-1,-2.517000027E-2,3.233600035E-2
3.854096840E-1,1.559199989E-1,-3.935299814E-2,6.034500152E-2
3.903906630E-1,1.424210072E-1,-5.395599827E-2,8.658300340E-2
3.953718940E-1,1.297059953E-1,-6.870199740E-2,1.102550030E-1
4.003530480E-1,1.177470013E-1,-8.356499672E-2,1.302780062E-1
4.053340360E-1,1.062640026E-1,-9.730599821E-2,1.477009952E-1
4.103151880E-1,9.548199922E-2,-1.091919988E-1,1.594049931E-1
4.152961900E-1,8.187600225E-2,-1.181270033E-1,1.656389982E-1
4.202771270E-1,6.582000107E-2,-1.245089993E-1,1.678819954E-1
4.252583560E-1,5.137899891E-2,-1.260389984E-1,1.671220064E-1
4.302395090E-1,3.899599984E-2,-1.236239970E-1,1.611510068E-1
4.352205110E-1,2.717499994E-2,-1.195209995E-1,1.526709944E-1
4.402016630E-1,1.510000043E-2,-1.131099984E-1,1.421850026E-1
4.451826650E-1,1.800999977E-3,-1.058750004E-1,1.284960061E-1
4.501638940E-1,-1.330699958E-2,-9.868200123E-2,1.094990000E-1
4.551448190E-1,-2.769199945E-2,-9.324699640E-2,8.498100191E-2
4.601259560E-1,-4.079600051E-2,-9.087800235E-2,5.955699831E-2
4.651071870E-1,-5.351499841E-2,-8.936599642E-2,3.723999858E-2
4.700881120E-1,-6.611499935E-2,-8.879499882E-2,1.887400076E-2
4.750690980E-1,-7.894100249E-2,-8.961500227E-2,5.841999780E-3
4.800502500E-1,-9.335099906E-2,-9.110199660E-2,-2.093000105E-3
4.850312620E-1,-1.092209965E-1,-9.305600077E-2,-6.525999866E-3
4.900124140E-1,-1.261949986E-1,-9.379000217E-2,-6.498000119E-3
4.949934160E-1,-1.433490068E-1,-9.201399982E-2,-3.409999888E-3
4.999745380E-1,-1.604560018E-1,-8.772099763E-2,8.449999732E-4
5.049555400E-1,-1.773349941E-1,-8.096700162E-2,6.870000158E-3
5.099366920E-1,-1.942210048E-1,-7.441399992E-2,1.532800030E-2
5.149176740E-1,-2.096450031E-1,-6.661800295E-2,2.426600084E-2
5.198988260E-1,-2.222400010E-1,-5.725299940E-2,3.058500029E-2
5.248798280E-1,-2.317409962E-1,-4.944099858E-2,3.736399859E-2
5.298609610E-1,-2.383210063E-1,-4.255300015E-2,4.419400170E-2
5.348419630E-1,-2.418600023E-1,-3.736300021E-2,5.201900005E-2
5.398231150E-1,-2.439260036E-1,-3.091200069E-2,6.166199967E-2
5.448040830E-1,-2.426420003E-1,-2.511299960E-2,7.314399630E-2
5.497852350E-1,-2.388689965E-1,-1.964299940E-2,8.520200104E-2
5.547662230E-1,-2.324029952E-1,-1.501100045E-2,9.389200062E-2
5.597473750E-1,-2.223780006E-1,-1.149799954E-2,9.969499707E-2
5.647283770E-1,-2.051640004E-1,-1.028299984E-2,1.028039977E-1
5.697095340E-1,-1.854559928E-1,-1.129100006E-2,1.011399999E-1
5.746905360E-1,-1.671990007E-1,-1.490699966E-2,9.482999891E-2
5.796716870E-1,-1.508059949E-1,-2.080000006E-2,8.729299903E-2
5.846526940E-1,-1.333499998E-1,-2.666400000E-2,7.711400092E-2
5.896338460E-1,-1.149799973E-1,-3.218499944E-2,6.456299871E-2
5.946148480E-1,-9.434600174E-2,-3.755899891E-2,5.254499987E-2
5.995959990E-1,-7.139000297E-2,-4.205000028E-2,4.324999824E-2
6.045770010E-1,-4.811000079E-2,-4.398300126E-2,3.759900108E-2
6.095581530E-1,-2.686800063E-2,-4.291199893E-2,3.301699832E-2
6.145391700E-1,-8.789000101E-3,-4.128900170E-2,2.762600034E-2
6.195203220E-1,6.949999835E-3,-3.845800087E-2,2.203699946E-2
6.245013240E-1,1.998900063E-2,-3.446999937E-2,1.296900027E-2
6.294824610E-1,3.303800151E-2,-2.866099961E-2,8.629999938E-4
6.344634630E-1,4.558400065E-2,-1.935300045E-2,-1.188699994E-2
6.394446150E-1,5.881299824E-2,-8.523000404E-3,-2.502400056E-2
6.444255880E-1,7.195000350E-2,2.119000070E-3,-3.859899938E-2
6.494067400E-1,8.437500149E-2,1.203799993E-2,-5.054299906E-2
6.543877420E-1,9.763500094E-2,2.074000053E-2,-6.207799911E-2
6.593689560E-1,1.086260006E-1,2.814799920E-2,-7.424300164E-2
6.643498810E-1,1.170990020E-1,3.362699971E-2,-8.563400060E-2
6.693311100E-1,1.240700036E-1,3.647800162E-2,-9.653600305E-2
6.743120060E-1,1.296460032E-1,3.875999898E-2,-1.076190025E-1
6.792931580E-1,1.337240040E-1,4.064799845E-2,-1.193590015E-1
6.842741600E-1,1.374340057E-1,4.349999875E-2,-1.290069968E-1
6.892553080E-1,1.414860040E-1,4.584499821E-2,-1.378089935E-1
6.942363100E-1,1.432600021E-1,4.778499901E-2,-1.477890015E-1
6.992174620E-1,1.435299963E-1,4.818800092E-2,-1.590909958E-1
7.041984780E-1,1.349350065E-1,4.800000042E-2,-1.583019942E-1
7.091796300E-1,9.371100366E-2,4.752900079E-2,-1.200010031E-1
7.141606320E-1,3.506499901E-2,4.874899983E-2,-6.465300173E-2
7.191417740E-1,9.281000122E-3,5.374800041E-2,-4.999899864E-2
7.241227760E-1,5.189999938E-3,6.151299924E-2,-6.266400218E-2
7.291039270E-1,7.536000106E-3,7.174800336E-2,-7.528600097E-2
7.340849580E-1,9.987000376E-3,8.395799994E-2,-7.951000333E-2
7.390661100E-1,1.354399975E-2,9.564200044E-2,-7.605800033E-2
7.440471120E-1,1.741099916E-2,1.054989994E-1,-7.323200256E-2
7.490283360E-1,2.088800073E-2,1.130020022E-1,-7.390700281E-2
7.540092610E-1,2.347799949E-2,1.181109995E-1,-7.853499800E-2
7.589904130E-1,2.408099920E-2,1.204089969E-1,-8.121500164E-2
7.639714300E-1,2.098900080E-2,1.172050014E-1,-7.729499787E-2
7.689526590E-1,1.461999957E-2,1.135549992E-1,-6.604900211E-2
7.739338150E-1,6.779999938E-3,1.131260023E-1,-4.734800011E-2
7.789148290E-1,-1.999999995E-6,1.143150032E-1,-2.057700045E-2
7.838959810E-1,-7.853999734E-3,1.154579967E-1,1.201300044E-2
7.888769830E-1,-1.713700034E-2,1.172019988E-1,5.091699958E-2
7.938579060E-1,-2.583999932E-2,1.242789999E-1,9.423600137E-2
7.988391340E-1,-3.497299924E-2,1.359429955E-1,1.393630058E-1
8.038202690E-1,-4.738799855E-2,1.498070061E-1,1.838259995E-1
8.088012710E-1,-6.146899983E-2,1.645369977E-1,2.275709957E-1
8.137824230E-1,-7.777799666E-2,1.825139970E-1,2.675450146E-1
8.187634000E-1,-9.695400298E-2,2.035360038E-1,3.045049906E-1
8.237445520E-1,-1.189349964E-1,2.230989933E-1,3.370740116E-1
8.287255540E-1,-1.415629983E-1,2.399619967E-1,3.645980060E-1
8.337067060E-1,-1.629859954E-1,2.507070005E-1,3.839969933E-1
8.386877080E-1,-1.826779991E-1,2.566860020E-1,3.930070102E-1
8.436686310E-1,-1.993899941E-1,2.583400011E-1,3.911480010E-1
8.486498660E-1,-2.109709978E-1,2.562789917E-1,3.825109899E-1
8.536310200E-1,-2.094459981E-1,2.508650124E-1,3.588069975E-1
8.586120370E-1,-1.716430038E-1,2.426380068E-1,2.998790145E-1
8.635931890E-1,-1.140109971E-1,2.321619987E-1,2.301339954E-1
8.685741910E-1,-8.265300095E-2,2.168859988E-1,2.099010050E-1
8.735553420E-1,-6.816600263E-2,1.945140064E-1,2.256370038E-1
8.785363440E-1,-5.395799875E-2,1.662739962E-1,2.505480051E-1
8.835174960E-1,-3.620700166E-2,1.352529973E-1,2.705399990E-1
8.884987410E-1,-1.217400003E-2,1.094150022E-1,2.940680087E-1
8.934796660E-1,1.311600022E-2,8.944699913E-2,3.221490085E-1
8.984606660E-1,3.207299858E-2,7.232499868E-2,3.451229930E-1
9.034418460E-1,4.513100162E-2,5.971100181E-2,3.619059920E-1
9.084228480E-1,5.398099869E-2,5.166300014E-2,3.715020120E-1
9.134040000E-1,6.086999923E-2,4.924700037E-2,3.735609949E-1
9.183850020E-1,6.599800289E-2,4.642099887E-2,3.686960042E-1
9.233661540E-1,6.569500268E-2,4.218000174E-2,3.589299917E-1
9.283471280E-1,5.504599959E-2,3.451000154E-2,3.464570045E-1
9.333282800E-1,3.599200025E-2,2.447899990E-2,3.339880109E-1
9.383092820E-1,8.043999784E-3,1.300800033E-2,3.187130094E-1
9.432904290E-1,-2.682700008E-2,-3.574999981E-3,3.026619852E-1
9.482714310E-1,-6.264200062E-2,-2.367400005E-2,2.856090069E-1
9.532525820E-1,-9.391199797E-2,-4.581800103E-2,2.707520127E-1
9.582335790E-1,-1.170760021E-1,-7.042899728E-2,2.586759925E-1
9.632147310E-1,-1.295409948E-1,-1.013529971E-1,2.509300113E-1
9.681957330E-1,-1.302569956E-1,-1.361809969E-1,2.455620021E-1
9.731768900E-1,-1.211239994E-1,-1.692149937E-1,2.412700057E-1
9.781578920E-1,-1.051990017E-1,-1.994089931E-1,2.368129939E-1
9.831390440E-1,-8.562800288E-2,-2.243939936E-1,2.323540002E-1
9.881200460E-1,-6.569299847E-2,-2.487239987E-1,2.300010026E-1
9.931011980E-1,-4.795699939E-2,-2.706780136E-1,2.328429967E-1
9.980822050E-1,-3.523699939E-2,-2.882390022E-1,2.410539985E-1
1.003063357E0,-3.080699965E-2,-3.016510010E-1,2.511979938E-1
1.008044359E0,-3.575500101E-2,-3.121890128E-1,2.588019967E-1
1.013025496E0,-4.954500124E-2,-3.213860095E-1,2.623310089E-1
1.018006498E0,-7.002600282E-2,-3.279139996E-1,2.601099908E-1
1.022987649E0,-9.452000260E-2,-3.312839866E-1,2.526530027E-1
1.027968671E0,-1.256069988E-1,-3.320010006E-1,2.387059927E-1
1.032949822E0,-1.593510062E-1,-3.319999874E-1,2.233349979E-1
1.037930824E0,-1.987960041E-1,-3.379360139E-1,1.971189976E-1
1.042912068E0,-2.385880053E-1,-3.481769860E-1,1.631219983E-1
1.047892993E0,-2.690170109E-1,-3.584760129E-1,1.348399967E-1
1.052874145E0,-2.909980118E-1,-3.732280135E-1,1.111920029E-1
1.057855160E0,-3.024539948E-1,-3.907740116E-1,8.869799972E-2
1.062836312E0,-3.059360087E-1,-4.078760147E-1,6.629700214E-2
1.067817543E0,-3.032949865E-1,-4.241130054E-1,4.326900095E-2
1.072798474E0,-2.934570014E-1,-4.422090054E-1,1.865199953E-2
1.077779703E0,-2.757540047E-1,-4.577710032E-1,-1.035999972E-2
1.082760628E0,-2.495249957E-1,-4.684970081E-1,-4.576500133E-2
1.087741628E0,-2.166029960E-1,-4.761210084E-1,-8.500800282E-2
1.092722780E0,-1.798579991E-1,-4.819639921E-1,-1.289770007E-1
1.097703782E0,-1.433759928E-1,-4.875319898E-1,-1.739220023E-1
1.102685024E0,-1.110609993E-1,-4.926249981E-1,-2.211149931E-1
1.107665949E0,-8.406099677E-2,-4.942100048E-1,-2.703610063E-1
1.112647178E0,-6.533300132E-2,-4.906879961E-1,-3.201000094E-1
1.117628103E0,-5.533099920E-2,-4.825089872E-1,-3.669170141E-1
1.122609255E0,-5.007499829E-2,-4.717510045E-1,-4.099859893E-1
1.127590486E0,-4.752999917E-2,-4.573349953E-1,-4.492959976E-1
1.132571459E0,-4.740900174E-2,-4.405030012E-1,-4.850200117E-1
1.137552611E0,-4.737599939E-2,-4.193120003E-1,-5.173040032E-1
1.142533613E0,-4.619999975E-2,-3.948900104E-1,-5.456190109E-1
1.147514536E0,-4.404700175E-2,-3.689680099E-1,-5.691670179E-1
1.152495765E0,-3.823800012E-2,-3.431220055E-1,-5.855770111E-1
1.157476919E0,-2.905800007E-2,-3.181039989E-1,-5.937269926E-1
1.162457931E0,-1.769199967E-2,-2.946409881E-1,-5.942440033E-1
1.167439082E0,-6.045000162E-3,-2.726159990E-1,-5.859770179E-1
1.172420008E0,5.059000105E-3,-2.509729862E-1,-5.713170171E-1
1.177401236E0,1.522000041E-2,-2.302750051E-1,-5.467560291E-1
1.182382238E0,2.168899961E-2,-2.110989988E-1,-5.241069794E-1
1.187363390E0,2.628899924E-2,-1.937790066E-1,-4.983899891E-1
1.192344368E0,2.882000059E-2,-1.789010018E-1,-4.683040082E-1
1.197325520E0,2.707899921E-2,-1.660410017E-1,-4.360609949E-1
1.202306522E0,2.325900085E-2,-1.505820006E-1,-4.025439918E-1
1.207287688E0,1.605300047E-2,-1.348939985E-1,-3.690240085E-1
1.212268919E0,7.926000282E-3,-1.188329980E-1,-3.396559954E-1
1.217249921E0,-1.059999995E-4,-1.020250022E-1,-3.143100142E-1
1.222231088E0,-6.022999994E-3,-8.289700001E-2,-2.942880094E-1
1.227212090E0,-8.775999770E-3,-6.338100135E-2,-2.795470059E-1
1.232193221E0,-9.575000033E-3,-4.655500129E-2,-2.704370022E-1
1.237174223E0,-7.596000098E-3,-3.213600069E-2,-2.671070099E-1
1.242155375E0,-3.203999950E-3,-2.002600022E-2,-2.662290037E-1
1.247136315E0,5.098000169E-3,-5.805000197E-3,-2.676979899E-1
1.252117313E0,1.908200048E-2,1.303999964E-2,-2.679800093E-1
1.257098467E0,3.767500073E-2,3.469299898E-2,-2.675670087E-1
1.262079464E0,5.976400152E-2,5.508000031E-2,-2.688969970E-1
1.267060693E0,8.101099730E-2,7.094299793E-2,-2.734079957E-1
1.272041603E0,9.647600353E-2,8.401600271E-2,-2.800180018E-1
1.277022755E0,1.054000035E-1,9.396400303E-2,-2.851769924E-1
1.282003757E0,1.095390022E-1,1.028800011E-1,-2.831760049E-1
1.286984900E0,1.106150001E-1,1.085449979E-1,-2.745530009E-1
1.291965902E0,1.093060002E-1,1.102669984E-1,-2.624189854E-1
1.296947054E0,1.067899987E-1,1.078139991E-1,-2.504130006E-1
1.301928285E0,1.027980000E-1,1.022759974E-1,-2.392760068E-1
1.306909287E0,9.756100178E-2,9.561199695E-2,-2.282599956E-1
1.311890210E0,9.113699943E-2,8.983299881E-2,-2.175309956E-1
1.316871376E0,8.146499842E-2,8.578500152E-2,-2.096509933E-1
1.321852378E0,7.040700316E-2,8.478000015E-2,-2.039860040E-1
1.326833529E0,5.951799825E-2,8.685000241E-2,-2.057079971E-1
1.331814517E0,5.016800016E-2,9.118700027E-2,-2.048539966E-1
1.336795746E0,4.128300026E-2,9.791299701E-2,-2.058929950E-1
1.341776902E0,3.392099962E-2,1.059119999E-1,-2.078099996E-1
1.346757902E0,2.962600067E-2,1.130129993E-1,-2.102369964E-1
1.351739068E0,2.753200009E-2,1.183750033E-1,-2.116049975E-1
1.356720070E0,2.751599997E-2,1.231110021E-1,-2.102089971E-1
1.361700978E0,3.069600090E-2,1.268360019E-1,-2.051340044E-1
1.366682130E0,3.719799966E-2,1.299429983E-1,-1.968600005E-1
1.371663132E0,4.393199831E-2,1.311530024E-1,-1.848769933E-1
1.376644284E0,4.919100180E-2,1.309069991E-1,-1.699279994E-1
1.381625286E0,5.346300080E-2,1.296889931E-1,-1.492220014E-1
1.386606438E0,5.694400147E-2,1.282040030E-1,-1.219319999E-1
1.391587440E0,6.004799902E-2,1.267600060E-1,-9.141600132E-2
1.396568591E0,5.991299823E-2,1.223490015E-1,-5.998000130E-2
1.401549832E0,5.520899966E-2,1.132659987E-1,-3.489600122E-2
1.406530757E0,4.550800100E-2,1.026789993E-1,-1.546700019E-2
1.411511986E0,3.257500008E-2,9.453000128E-2,7.599999662E-5
1.416492897E0,2.139900066E-2,9.043599665E-2,1.110500004E-2
1.421473897E0,1.411900017E-2,8.907599747E-2,1.916399971E-2
1.426455126E0,1.135899965E-2,8.951999992E-2,2.356700040E-2
1.431436265E0,1.176800020E-2,8.923800290E-2,2.044899948E-2
1.436417267E0,1.241500024E-2,9.003300220E-2,1.329500042E-2
1.441398429E0,1.261399966E-2,9.232900292E-2,4.507000092E-3
1.446379431E0,1.155900024E-2,9.723000228E-2,-3.606999991E-3
1.451360583E0,1.026900019E-2,1.050459966E-1,-1.112200040E-2
1.456341493E0,9.428000078E-3,1.156399995E-1,-1.751700044E-2
1.461322721E0,9.968000464E-3,1.269890070E-1,-2.237699926E-2
1.466303723E0,1.301900018E-2,1.367689967E-1,-2.473399974E-2
1.471284880E0,1.711899973E-2,1.437010020E-1,-2.451100014E-2
1.476265882E0,2.071800083E-2,1.475850046E-1,-2.146100067E-2
1.481247034E0,2.410800010E-2,1.490969956E-1,-1.576299965E-2
1.486228050E0,2.694799937E-2,1.491570026E-1,-7.184000220E-3
1.491209202E0,2.781499922E-2,1.481200010E-1,4.532000050E-3
1.496190204E0,2.614700049E-2,1.481200010E-1,1.958700083E-2
1.501171366E0,2.251300029E-2,1.483750045E-1,3.769500181E-2
1.506152368E0,1.698900014E-2,1.492190063E-1,5.684300140E-2
1.511133520E0,9.504999965E-3,1.506589949E-1,7.778099924E-2
1.516114517E0,5.169999786E-4,1.518120021E-1,1.000849977E-1
1.521095669E0,-8.267999627E-3,1.526059955E-1,1.224609986E-1
1.526076671E0,-1.587199979E-2,1.529220045E-1,1.437460035E-1
1.531057804E0,-2.208299935E-2,1.537490040E-1,1.644770056E-1
1.536038806E0,-2.609400079E-2,1.549219936E-1,1.837430000E-1
1.541019957E0,-2.834500000E-2,1.571370065E-1,2.001129985E-1
1.546000973E0,-2.867699973E-2,1.602499932E-1,2.145500034E-1
1.550982125E0,-2.779399976E-2,1.643999964E-1,2.310809940E-1
1.555963127E0,-2.517200075E-2,1.689340025E-1,2.483260036E-1
1.560944279E0,-2.103099972E-2,1.734540015E-1,2.676140070E-1
1.565925281E0,-1.650599949E-2,1.773889959E-1,2.885990143E-1
1.570906457E0,-1.135300007E-2,1.814309955E-1,3.103660047E-1
1.575887459E0,-5.123999901E-3,1.851119995E-1,3.325690031E-1
1.580868611E0,1.135000028E-3,1.892700046E-1,3.549279869E-1
1.585849632E0,9.271999821E-3,1.936170012E-1,3.765180111E-1
1.590830861E0,1.948400028E-2,1.977979988E-1,3.983870149E-1
1.595811786E0,3.040000051E-2,2.022279948E-1,4.211170077E-1
1.600792962E0,4.085600004E-2,2.053250074E-1,4.458779991E-1
1.605773964E0,4.941200092E-2,2.058230042E-1,4.717530012E-1
1.610755116E0,5.427800119E-2,2.039230019E-1,4.973039925E-1
1.615736118E0,5.625500157E-2,2.019560039E-1,5.217030048E-1
1.620717269E0,5.713399872E-2,2.007659972E-1,5.435839891E-1
1.625698500E0,5.815700069E-2,2.005800009E-1,5.614089966E-1
1.630679449E0,5.916700140E-2,2.008139938E-1,5.760509968E-1
1.635660449E0,6.106000021E-2,2.014479935E-1,5.873820186E-1
1.640641673E0,6.372399628E-2,2.027229965E-1,5.940849781E-1
1.645622598E0,6.694100052E-2,2.022729963E-1,5.972759724E-1
1.650603750E0,6.989700347E-2,2.010200024E-1,5.981050134E-1
1.655584757E0,7.226199657E-2,1.991229951E-1,5.964069963E-1
1.660565909E0,7.223799825E-2,1.954350024E-1,5.914090276E-1
1.665547140E0,6.941000372E-2,1.899300069E-1,5.823029876E-1
1.670528064E0,6.491299719E-2,1.829719990E-1,5.692729950E-1
1.675509064E0,5.997499824E-2,1.760029942E-1,5.525270104E-1
1.680490216E0,5.538599938E-2,1.679999977E-1,5.295529962E-1
1.685471218E0,5.395000055E-2,1.582780033E-1,4.985330105E-1
1.690452369E0,5.867400020E-2,1.474999934E-1,4.624150097E-1
1.695433600E0,6.998699903E-2,1.360680014E-1,4.238190055E-1
1.700414516E0,8.689100295E-2,1.249430031E-1,3.861730099E-1
1.705395745E0,1.066709980E-1,1.136810035E-1,3.526720107E-1
1.710376670E0,1.311769933E-1,1.005859971E-1,3.191049993E-1
